S,put delta,gamma,vega,put theta,put rho
50,-0.999807239,0.000082837,0.000258865,0.026040820,-0.475568555
51,-0.999706749,0.000120115,0.000390522,0.026030412,-0.475543165
52,-0.999562540,0.000170821,0.000577376,0.026015578,-0.475506010
53,-0.999359456,0.000238498,0.000837425,0.025994843,-0.475452673
54,-0.999078541,0.000327201,0.001192648,0.025966393,-0.475377491
55,-0.998696536,0.000441471,0.001669313,0.025928039,-0.475273347
56,-0.998185428,0.000586263,0.002298152,0.025877193,-0.475131454
57,-0.997512080,0.000766849,0.003114364,0.025810860,-0.474941158
58,-0.996637981,0.000988684,0.004157416,0.025725643,-0.474689762
59,-0.995519133,0.001257253,0.005470620,0.025617760,-0.474362387
60,-0.994106119,0.001577881,0.007100463,0.025483085,-0.473941882
61,-0.992344356,0.001955538,0.009095695,0.025317215,-0.473408792
62,-0.990174557,0.002394627,0.011506184,0.025115543,-0.472741396
63,-0.987533403,0.002898780,0.014381572,0.024873362,-0.471915825
64,-0.984354410,0.003470655,0.017769755,0.024585976,-0.470906256
65,-0.980568999,0.004111766,0.021715263,0.024248828,-0.469685194
66,-0.976107712,0.004822328,0.026257576,0.023857636,-0.468223827
67,-0.970901573,0.005601152,0.031429462,0.023408528,-0.466492461
68,-0.964883527,0.006445571,0.037255398,0.022898179,-0.464461019
69,-0.957989938,0.007351421,0.043750142,0.022323940,-0.462099587
70,-0.950162073,0.008313065,0.050917521,0.021683951,-0.459379003
71,-0.941347542,0.009323466,0.058749489,0.020977238,-0.456271460
72,-0.931501649,0.010374305,0.067225499,0.020203794,-0.452751115
73,-0.920588589,0.011456141,0.076312220,0.019364625,-0.448794680
74,-0.908582485,0.012558599,0.085963611,0.018461779,-0.444381977
75,-0.895468207,0.013670594,0.096121363,0.017498342,-0.439496445
76,-0.881241969,0.014780565,0.106715682,0.016478410,-0.434125578
77,-0.865911679,0.015876728,0.117666401,0.015407029,-0.428261285
78,-0.849497039,0.016947320,0.128884370,0.014290121,-0.421900166
79,-0.832029399,0.017980848,0.140273091,0.013134374,-0.415043687
80,-0.813551371,0.018966316,0.151730527,0.011947129,-0.407698260
81,-0.794116227,0.019893436,0.163151039,0.010736243,-0.399875228
82,-0.773787092,0.020752812,0.174427387,0.009509946,-0.391590747
83,-0.752635978,0.021536099,0.185452735,0.008276694,-0.382865586
84,-0.730742662,0.022236122,0.196122600,0.007045018,-0.373724835
85,-0.708193473,0.022846970,0.206336698,0.005823380,-0.364197548
86,-0.685079993,0.023364050,0.216000642,0.004620028,-0.354316320
87,-0.661497727,0.023784114,0.225027452,0.003442877,-0.344116815
88,-0.637544754,0.024105253,0.233338848,0.002299381,-0.333637256
89,-0.613320413,0.024326858,0.240866302,0.001196439,-0.322917892
90,-0.588924017,0.024449566,0.247551851,0.000140309,-0.312000454
91,-0.564453660,0.024475174,0.253348645,-0.000863463,-0.300927607
92,-0.540005092,0.024406546,0.258221254,-0.001810091,-0.289742416
93,-0.515670718,0.024247495,0.262145733,-0.002695580,-0.278487834
94,-0.491538702,0.024002667,0.265109461,-0.003516746,-0.267206218
95,-0.467692200,0.023677410,0.267110785,-0.004271211,-0.255938882
96,-0.444208722,0.023277646,0.268158476,-0.004957392,-0.244725688
97,-0.421159626,0.022809739,0.268271042,-0.005574472,-0.233604694
98,-0.398609732,0.022280375,0.267475907,-0.006122358,-0.222611841
99,-0.376617067,0.021696439,0.265808501,-0.006601640,-0.211780697
100,-0.355232720,0.021064902,0.263311280,-0.007013526,-0.201142248
101,-0.334500809,0.020392722,0.260032701,-0.007359788,-0.190724742
102,-0.314458538,0.019686750,0.256026181,-0.007642693,-0.180553584
103,-0.295136349,0.018953648,0.251349062,-0.007864935,-0.170651268
104,-0.276558146,0.018199822,0.246061595,-0.008029569,-0.161037362
105,-0.258741579,0.017431363,0.240225975,-0.008139942,-0.151728526
106,-0.241698384,0.016653999,0.233905422,-0.008199628,-0.142738564
107,-0.225434767,0.015873061,0.227163338,-0.008212365,-0.134078514
108,-0.209951814,0.015093452,0.220062529,-0.008181995,-0.125756752
109,-0.195245926,0.014319638,0.212664523,-0.008112412,-0.117779130
110,-0.181309264,0.013555634,0.205028957,-0.008007511,-0.110149125
111,-0.168130196,0.012805004,0.197213063,-0.007871141,-0.102868003
112,-0.155693753,0.012070870,0.189271236,-0.007707071,-0.095934992
113,-0.143982058,0.011355920,0.181254680,-0.007518953,-0.089347461
114,-0.132974756,0.010662428,0.173211143,-0.007310292,-0.083101107
115,-0.122649419,0.009992270,0.165184720,-0.007084426,-0.077190131
116,-0.112981931,0.009346952,0.157215729,-0.006844506,-0.071607425
117,-0.103946847,0.008727630,0.149340651,-0.006593483,-0.066344746
118,-0.095517725,0.008135141,0.141592123,-0.006334097,-0.061392884
119,-0.087667437,0.007570029,0.133998984,-0.006068872,-0.056741824
120,-0.080368444,0.007032576,0.126586364,-0.005800113,-0.052380900
121,-0.073593049,0.006522823,0.119375808,-0.005529908,-0.048298937
122,-0.067313618,0.006040604,0.112385434,-0.005260132,-0.044484384
123,-0.061502778,0.005585570,0.105630109,-0.004992449,-0.040925433
124,-0.056133585,0.005157214,0.099121651,-0.004728325,-0.037610135
125,-0.051179670,0.004754895,0.092869036,-0.004469030,-0.034526491
126,-0.046615366,0.004377859,0.086878620,-0.004215656,-0.031662547
127,-0.042415804,0.004025264,0.081154363,-0.003969122,-0.029006471
128,-0.038556995,0.003696194,0.075698054,-0.003730189,-0.026546618
129,-0.035015897,0.003389678,0.070509533,-0.003499470,-0.024271590
130,-0.031770458,0.003104706,0.065586908,-0.003277444,-0.022170287
131,-0.028799649,0.002840243,0.060926765,-0.003064466,-0.020231944
132,-0.026083485,0.002595242,0.056524371,-0.002860783,-0.018446168
133,-0.023603028,0.002368652,0.052373860,-0.002666541,-0.016802960
134,-0.021340391,0.002159430,0.048468412,-0.002481796,-0.015292737
135,-0.019278721,0.001966548,0.044800423,-0.002306531,-0.013906344
136,-0.017402184,0.001788999,0.041361657,-0.002140658,-0.012635064
137,-0.015695939,0.001625803,0.038143382,-0.001984033,-0.011470620
138,-0.014146109,0.001476014,0.035136503,-0.001836463,-0.010405174
139,-0.012739748,0.001338716,0.032331677,-0.001697713,-0.009431327
140,-0.011464804,0.001213037,0.029719411,-0.001567515,-0.008542105
141,-0.010310080,0.001098140,0.027290157,-0.001445575,-0.007730960
142,-0.009265195,0.000993231,0.025034390,-0.001331575,-0.006991747
143,-0.008320540,0.000897557,0.022942679,-0.001225185,-0.006318721
144,-0.007467240,0.000810407,0.021005743,-0.001126064,-0.005706514
145,-0.006697109,0.000731111,0.019214503,-0.001033863,-0.005150127
146,-0.006002611,0.000659040,0.017560124,-0.000948233,-0.004644910
147,-0.005376817,0.000593606,0.016034047,-0.000868823,-0.004186543
148,-0.004813370,0.000534259,0.014628017,-0.000795287,-0.003771025
149,-0.004306441,0.000480487,0.013334103,-0.000727286,-0.003394653
150,-0.003850697,0.000431812,0.012144714,-0.000664487,-0.003054005
