S,put delta,gamma,vega,put theta,put rho
50,-0.992809214,0.001596387,0.009977417,0.012643343,-0.947907557
51,-0.991066869,0.001893975,0.012315572,0.012551212,-0.947027425
52,-0.989009785,0.002225988,0.015047676,0.012443131,-0.945967749
53,-0.986603248,0.002592921,0.018208788,0.012317562,-0.944704012
54,-0.983812292,0.002994789,0.021832010,0.012173020,-0.943210515
55,-0.980602184,0.003431100,0.025947693,0.012008102,-0.941460643
56,-0.976938939,0.003900852,0.030582682,0.011821513,-0.939427151
57,-0.972789831,0.004402535,0.035759590,0.011612103,-0.937082486
58,-0.968123889,0.004934145,0.041496158,0.011378887,-0.934399126
59,-0.962912384,0.005493213,0.047804682,0.011121072,-0.931349930
60,-0.957129273,0.006076840,0.054691559,0.010838077,-0.927908493
61,-0.950751608,0.006681745,0.062156930,0.010529550,-0.924049501
62,-0.943759893,0.007304313,0.070194445,0.010195383,-0.919749078
63,-0.936138388,0.007940656,0.078791156,0.009835715,-0.914985107
64,-0.927875355,0.008586673,0.087927530,0.009450941,-0.909737542
65,-0.918963234,0.009238114,0.097577580,0.009041709,-0.903988681
66,-0.909398764,0.009890644,0.107709114,0.008608913,-0.897723410
67,-0.899183035,0.010539905,0.118284089,0.008153687,-0.890929409
68,-0.888321483,0.011181579,0.129259059,0.007677393,-0.883597326
69,-0.876823815,0.011811443,0.140585705,0.007181598,-0.875720899
70,-0.864703893,0.012425424,0.152211440,0.006668061,-0.867297041
71,-0.851979557,0.013019643,0.164080054,0.006138709,-0.858325889
72,-0.838672409,0.013590464,0.176132418,0.005595613,-0.848810803
73,-0.824807552,0.014134524,0.188307195,0.005040964,-0.838758328
74,-0.810413305,0.014648763,0.200541570,0.004477044,-0.828178128
75,-0.795520880,0.015130452,0.212771979,0.003906204,-0.817082870
76,-0.780164051,0.015577203,0.224934813,0.003330836,-0.805488091
77,-0.764378800,0.015986987,0.236967110,0.002753346,-0.793412033
78,-0.748202961,0.016358132,0.248807194,0.002176130,-0.780875448
79,-0.731675855,0.016689331,0.260395284,0.001601550,-0.767901394
80,-0.714837937,0.016979627,0.271674037,0.001031917,-0.754515008
81,-0.697730441,0.017228414,0.282589052,0.000469461,-0.740743266
82,-0.680395042,0.017435413,0.293089296,-0.000083678,-0.726614744
83,-0.662873533,0.017600666,0.303127475,-0.000625470,-0.712159361
84,-0.645207516,0.017724509,0.312660342,-0.001154010,-0.697408133
85,-0.627438117,0.017807554,0.321648941,-0.001667526,-0.682392922
86,-0.609605722,0.017850664,0.330058780,-0.002164394,-0.667146189
87,-0.591749738,0.017854932,0.337859956,-0.002643139,-0.651700759
88,-0.573908375,0.017821654,0.345027212,-0.003102444,-0.636089594
89,-0.556118457,0.017752301,0.351539946,-0.003541155,-0.620345575
90,-0.538415257,0.017648502,0.357382163,-0.003958276,-0.604501296
91,-0.520832352,0.017512010,0.362542394,-0.004352974,-0.588588882
92,-0.503401515,0.017344686,0.367013557,-0.004724577,-0.572639805
93,-0.486152611,0.017148470,0.370792798,-0.005072565,-0.556684733
94,-0.469113538,0.016925364,0.373881291,-0.005396573,-0.540753385
95,-0.452310167,0.016677408,0.376284015,-0.005696379,-0.524874406
96,-0.435766319,0.016406663,0.378009513,-0.005971898,-0.509075257
97,-0.419503749,0.016115193,0.379069627,-0.006223177,-0.493382120
98,-0.403542157,0.015805049,0.379479229,-0.006450387,-0.477819826
99,-0.387899201,0.015478255,0.379255937,-0.006653809,-0.462411787
100,-0.372590536,0.015136793,0.378419832,-0.006833831,-0.447179950
101,-0.357629859,0.014782597,0.376993171,-0.006990934,-0.432144764
102,-0.343028963,0.014417536,0.375000105,-0.007125686,-0.417325160
103,-0.328797807,0.014043412,0.372466396,-0.007238732,-0.402738536
104,-0.314944584,0.013661951,0.369419154,-0.007330782,-0.388400768
105,-0.301475802,0.013274796,0.365886566,-0.007402605,-0.374326214
106,-0.288396370,0.012883505,0.361897654,-0.007455019,-0.360527739
107,-0.275709681,0.012489546,0.357482035,-0.007488881,-0.347016743
108,-0.263417706,0.012094297,0.352669698,-0.007505083,-0.333803200
109,-0.251521088,0.011699042,0.347490795,-0.007504538,-0.320895698
110,-0.240019226,0.011304974,0.341975449,-0.007488180,-0.308301488
111,-0.228910377,0.010913191,0.336153580,-0.007456951,-0.296026537
112,-0.218191744,0.010524705,0.330054738,-0.007411798,-0.284075584
113,-0.207859562,0.010140433,0.323707962,-0.007353667,-0.272452200
114,-0.197909195,0.009761208,0.317141651,-0.007283497,-0.261158850
115,-0.188335213,0.009387779,0.310383447,-0.007202215,-0.250196952
116,-0.179131482,0.009020813,0.303460138,-0.007110731,-0.239566948
117,-0.170291237,0.008660898,0.296397573,-0.007009939,-0.229268362
118,-0.161807163,0.008308549,0.289220589,-0.006900707,-0.219299870
119,-0.153671468,0.007964210,0.281952955,-0.006783877,-0.209659357
120,-0.145875946,0.007628259,0.274617324,-0.006660265,-0.200343989
121,-0.138412049,0.007301009,0.267235199,-0.006530654,-0.191350265
122,-0.131270941,0.006982717,0.259826909,-0.006395797,-0.182674084
123,-0.124443561,0.006673583,0.252411594,-0.006256413,-0.174310802
124,-0.117920672,0.006373756,0.245007197,-0.006113188,-0.166255283
125,-0.111692911,0.006083340,0.237630471,-0.005966770,-0.158501963
126,-0.105750835,0.005802393,0.230296984,-0.005817775,-0.151044892
127,-0.100084961,0.005530935,0.223021136,-0.005666782,-0.143877788
128,-0.094685806,0.005268950,0.215816182,-0.005514334,-0.136994084
129,-0.089543920,0.005016387,0.208694259,-0.005360941,-0.130386971
130,-0.084649916,0.004773170,0.201666412,-0.005207077,-0.124049438
131,-0.079994501,0.004539191,0.194742635,-0.005053182,-0.117974316
132,-0.075568498,0.004314323,0.187931902,-0.004899664,-0.112154309
133,-0.071362868,0.004098416,0.181242213,-0.004746897,-0.106582030
134,-0.067368734,0.003891304,0.174680631,-0.004595227,-0.101250033
135,-0.063577390,0.003692803,0.168253326,-0.004444965,-0.096150841
136,-0.059980323,0.003502717,0.161965623,-0.004296398,-0.091276974
137,-0.056569220,0.003320838,0.155822043,-0.004149783,-0.086620970
138,-0.053335982,0.003146951,0.149826349,-0.004005349,-0.082175413
139,-0.050272729,0.002980831,0.143981592,-0.003863302,-0.077932945
140,-0.047371808,0.002822248,0.138290154,-0.003723823,-0.073886292
141,-0.044625798,0.002670968,0.132753796,-0.003587071,-0.070028275
142,-0.042027516,0.002526755,0.127373696,-0.003453184,-0.066351826
143,-0.039570013,0.002389369,0.122150495,-0.003322277,-0.062849999
144,-0.037246582,0.002258571,0.117084338,-0.003194450,-0.059515985
145,-0.035050754,0.002134124,0.112174912,-0.003069783,-0.056343116
146,-0.032976296,0.002015791,0.107421487,-0.002948340,-0.053324879
147,-0.031017213,0.001903336,0.102822951,-0.002830171,-0.050454916
148,-0.029167742,0.001796527,0.098377845,-0.002715309,-0.047727036
149,-0.027422352,0.001695138,0.094084401,-0.002603778,-0.045135215
150,-0.025775735,0.001598943,0.089940567,-0.002495586,-0.042673603
